# Solar Atlas
# Source: Chance, K. and Kurucz, R. L. Journal of Quantitative Spectroscopy and Radiative Transfer, 111, 1289–1295, https://doi.org/10.1016/j.jqsrt.2010.01.036, 2010.
# Interpolated by cublic spline
# Wavelength (nm),       Intensity (Photons s-1 cm-2 nm-1)
3.020000000000000000e+02 3.877778215143262514e+03
3.020099999999999909e+02 4.763552465369599304e+03
3.020199999999999818e+02 6.176259880980922389e+03
3.020299999999999727e+02 7.612826577825809181e+03
3.020399999999999636e+02 8.538428919557072732e+03
3.020499999999999545e+02 8.645501358021627311e+03
3.020599999999999454e+02 7.970991336590507672e+03
3.020699999999999363e+02 6.819959492011066686e+03
3.020799999999999272e+02 5.607381973948110499e+03
3.020899999999999181e+02 4.654776687151736041e+03
3.020999999999999091e+02 4.016562832130484821e+03
3.021099999999999000e+02 3.511760559102060142e+03
3.021199999999998909e+02 2.952088201516296067e+03
3.021299999999998818e+02 2.325334316219862103e+03
3.021399999999998727e+02 1.782507487900884826e+03
3.021499999999998636e+02 1.488418363149385641e+03
3.021599999999998545e+02 1.473313747310193321e+03
3.021699999999998454e+02 1.605222382454591752e+03
3.021799999999998363e+02 1.724067904568463064e+03
3.021899999999998272e+02 1.815171532753269275e+03
3.021999999999998181e+02 2.009176921888368270e+03
3.022099999999998090e+02 2.395020951786790192e+03
3.022199999999997999e+02 2.907914088683136924e+03
3.022299999999997908e+02 3.459921417337236562e+03
3.022399999999997817e+02 4.121042687251261668e+03
3.022499999999997726e+02 5.064317179014930844e+03
3.022599999999997635e+02 6.327406235766858117e+03
3.022699999999997544e+02 7.717794890665555613e+03
3.022799999999997453e+02 8.949572554734857476e+03
3.022899999999997362e+02 9.807417042683448017e+03
3.022999999999997272e+02 1.024965915311728895e+04
3.023099999999997181e+02 1.045140471853241615e+04
3.023199999999997090e+02 1.066749090179622544e+04
3.023299999999996999e+02 1.098135630216869868e+04
3.023399999999996908e+02 1.132183638633310329e+04
3.023499999999996817e+02 1.174583021708600063e+04
3.023599999999996726e+02 1.242679038540638794e+04
3.023699999999996635e+02 1.330659042190463515e+04
3.023799999999996544e+02 1.408048280376104231e+04
3.023899999999996453e+02 1.461903875812035039e+04
3.023999999999996362e+02 1.509096406881820440e+04
3.024099999999996271e+02 1.558155096956177840e+04
3.024199999999996180e+02 1.590819141816691990e+04
3.024299999999996089e+02 1.585809318987267761e+04
3.024399999999995998e+02 1.531515364056375620e+04
3.024499999999995907e+02 1.416878093124202860e+04
3.024599999999995816e+02 1.235451116662139793e+04
3.024699999999995725e+02 1.007115916575655865e+04
3.024799999999995634e+02 7.899563787653711188e+03
3.024899999999995543e+02 6.555566092122492591e+03
3.024999999999995453e+02 6.394249796904940922e+03
3.025099999999995362e+02 7.262138979584291519e+03
3.025199999999995271e+02 8.832142307513431660e+03
3.025299999999995180e+02 1.073779124059653259e+04
3.025399999999995089e+02 1.240043871727481928e+04
3.025499999999994998e+02 1.324922795049825436e+04
3.025599999999994907e+02 1.323244504404851250e+04
3.025699999999994816e+02 1.282301727317486257e+04
3.025799999999994725e+02 1.249012707059012428e+04
3.025899999999994634e+02 1.226933165386359542e+04
3.025999999999994543e+02 1.183652053494256324e+04
3.026099999999994452e+02 1.096211858256758023e+04
3.026199999999994361e+02 9.741901084702556545e+03
3.026299999999994270e+02 8.308164937769150129e+03
3.026399999999994179e+02 6.666445995996577949e+03
3.026499999999994088e+02 4.990597636167388373e+03
3.026599999999993997e+02 3.733620563231052074e+03
3.026699999999993906e+02 3.314486260556825982e+03
3.026799999999993815e+02 3.825513238400435057e+03
3.026899999999993724e+02 4.946824309015204562e+03
3.026999999999993634e+02 6.041495646768725237e+03
3.027099999999993543e+02 6.509876507862874860e+03
3.027199999999993452e+02 6.280890030838246275e+03
3.027299999999993361e+02 5.975892016849977153e+03
3.027399999999993270e+02 6.418359569231770365e+03
3.027499999999993179e+02 7.883970713880402400e+03
3.027599999999993088e+02 9.913825679494264477e+03
3.027699999999992997e+02 1.190526782857831131e+04
3.027799999999992906e+02 1.372729029406020709e+04
3.027899999999992815e+02 1.559031815939292574e+04
3.027999999999992724e+02 1.747376105279032345e+04
3.028099999999992633e+02 1.899587047452065963e+04
3.028199999999992542e+02 1.978316413250455298e+04
3.028299999999992451e+02 1.973982916507194022e+04
3.028399999999992360e+02 1.907001585257370971e+04
3.028499999999992269e+02 1.816524184926934686e+04
3.028599999999992178e+02 1.727324289417562977e+04
3.028699999999992087e+02 1.627353274822758613e+04
3.028799999999991996e+02 1.509422045376584538e+04
3.028899999999991905e+02 1.424505548382045345e+04
3.028999999999991815e+02 1.442340517651751543e+04
3.029099999999991724e+02 1.560534762790568493e+04
3.029199999999991633e+02 1.696714271902013206e+04
3.029299999999991542e+02 1.770158274614404218e+04
3.029399999999991451e+02 1.761967214291472192e+04
3.029499999999991360e+02 1.700083377772397216e+04
3.029599999999991269e+02 1.606863099443638566e+04
3.029699999999991178e+02 1.474578727590877679e+04
3.029799999999991087e+02 1.293561304146686052e+04
3.029899999999990996e+02 1.089987153400574425e+04
3.029999999999990905e+02 9.318971841314052654e+03
3.030099999999990814e+02 8.986883210252286517e+03
3.030199999999990723e+02 1.017279594617660587e+04
3.030299999999990632e+02 1.213822459018400332e+04
3.030399999999990541e+02 1.361269059683171690e+04
3.030499999999990450e+02 1.394196120251676439e+04
3.030599999999990359e+02 1.348256044894193474e+04
3.030699999999990268e+02 1.274649222949013347e+04
3.030799999999990177e+02 1.170250777429298068e+04
3.030899999999990087e+02 1.034984308531771785e+04
3.030999999999989996e+02 9.459134159504659692e+03
3.031099999999989905e+02 1.001984605515876137e+04
3.031199999999989814e+02 1.200108069011574116e+04
3.031299999999989723e+02 1.420172051610829294e+04
3.031399999999989632e+02 1.547559321663014271e+04
3.031499999999989541e+02 1.562989575993098333e+04
3.031599999999989450e+02 1.497949551094724120e+04
3.031699999999989359e+02 1.369034285097494103e+04
3.031799999999989268e+02 1.188090756540377697e+04
3.031899999999989177e+02 9.867046459163777399e+03
3.031999999999989086e+02 8.048443197727876395e+03
3.032099999999988995e+02 6.754193042891471123e+03
3.032199999999988904e+02 6.103442106173202774e+03
3.032299999999988813e+02 5.870973802222046288e+03
3.032399999999988722e+02 5.758691148006764706e+03
3.032499999999988631e+02 5.902635882446934374e+03
3.032599999999988540e+02 6.854903006076808197e+03
3.032699999999988449e+02 9.030856929878556912e+03
3.032799999999988358e+02 1.224745125223705327e+04
3.032899999999988268e+02 1.568588052965837414e+04
3.032999999999988177e+02 1.834334105060410002e+04
3.033099999999988086e+02 1.969160962020569423e+04
3.033199999999987995e+02 1.995324761765787844e+04
3.033299999999987904e+02 1.978203692241716635e+04
3.033399999999987813e+02 1.960418821191272218e+04
3.033499999999987722e+02 1.918211063845157332e+04
3.033599999999987631e+02 1.802396484555210918e+04
3.033699999999987540e+02 1.627628815091442812e+04
3.033799999999987449e+02 1.487466496820924840e+04
3.033899999999987358e+02 1.461540663654368473e+04
3.033999999999987267e+02 1.524614333094150243e+04
3.034099999999987176e+02 1.568212316291458774e+04
3.034199999999987085e+02 1.523737614117891098e+04
3.034299999999986994e+02 1.443718218944450928e+04
3.034399999999986903e+02 1.421687523033891011e+04
3.034499999999986812e+02 1.466400191797106163e+04
3.034599999999986721e+02 1.517237368979216080e+04
3.034699999999986630e+02 1.537852789933920030e+04
3.034799999999986539e+02 1.527181867307744324e+04
3.034899999999986449e+02 1.485475092241935272e+04
3.034999999999986358e+02 1.421812768616432368e+04
3.035099999999986267e+02 1.346227066653196198e+04
3.035199999999986176e+02 1.243355364641995948e+04
3.035299999999986085e+02 1.123118364235351510e+04
3.035399999999985994e+02 1.070698083025005326e+04
3.035499999999985903e+02 1.160078332136282916e+04
3.035599999999985812e+02 1.352789934520563111e+04
3.035699999999985721e+02 1.546895520120793844e+04
3.035799999999985630e+02 1.682160736572602036e+04
3.035899999999985539e+02 1.752198059761690456e+04
3.035999999999985448e+02 1.762029837075927571e+04
3.036099999999985357e+02 1.728539171452986557e+04
3.036199999999985266e+02 1.693520509860223319e+04
3.036299999999985175e+02 1.680532544168541426e+04
3.036399999999985084e+02 1.655333135333243990e+04
3.036499999999984993e+02 1.583078965556000912e+04
3.036599999999984902e+02 1.507368018014027621e+04
3.036699999999984811e+02 1.504011436703725849e+04
3.036799999999984720e+02 1.568901166919685602e+04
3.036899999999984630e+02 1.623871447941831684e+04
3.036999999999984539e+02 1.621854994260683998e+04
3.037099999999984448e+02 1.583630046061082794e+04
3.037199999999984357e+02 1.546870471035312767e+04
3.037299999999984266e+02 1.524952496147050988e+04
3.037399999999984175e+02 1.501982458468719415e+04
3.037499999999984084e+02 1.444306873132688634e+04
3.037599999999983993e+02 1.326450791039101750e+04
3.037699999999983902e+02 1.148043485294582752e+04
3.037799999999983811e+02 9.283276853911027501e+03
3.037899999999983720e+02 7.014290519982550904e+03
3.037999999999983629e+02 5.072545813317537977e+03
3.038099999999983538e+02 3.694180733114551003e+03
3.038199999999983447e+02 2.917044490884311017e+03
3.038299999999983356e+02 2.714359583602741168e+03
3.038399999999983265e+02 2.954718358435659411e+03
3.038499999999983174e+02 3.326359540616166669e+03
3.038599999999983083e+02 3.549158886507749230e+03
3.038699999999982992e+02 3.695057451891934306e+03
3.038799999999982901e+02 4.179519844129355988e+03
3.038899999999982811e+02 5.349551441675434035e+03
3.038999999999982720e+02 7.114411828578374298e+03
3.039099999999982629e+02 9.067140571712421661e+03
3.039199999999982538e+02 1.086216009217687497e+04
3.039299999999982447e+02 1.230733115980990260e+04
3.039399999999982356e+02 1.326212824418729906e+04
3.039499999999982265e+02 1.369234677989993179e+04
3.039599999999982174e+02 1.373643322086621629e+04
3.039699999999982083e+02 1.356096417623431989e+04
3.039799999999981992e+02 1.328492293823605905e+04
3.039899999999981901e+02 1.314802952932033259e+04
3.039999999999981810e+02 1.338173776433023704e+04
3.040099999999981719e+02 1.381947103420677377e+04
3.040199999999981628e+02 1.402036492981702395e+04
3.040299999999981537e+02 1.367130552416447972e+04
3.040399999999981446e+02 1.281900941506467825e+04
3.040499999999981355e+02 1.208894045831846597e+04
3.040599999999981264e+02 1.239026877680869802e+04
3.040699999999981173e+02 1.395749165290775636e+04
3.040799999999981083e+02 1.590668847100970561e+04
3.040899999999980992e+02 1.690702484511020884e+04
3.040999999999980901e+02 1.612073315212105263e+04
3.041099999999980810e+02 1.365164197001734283e+04
3.041199999999980719e+02 1.053505623582803673e+04
3.041299999999980628e+02 8.226028892658303448e+03
3.041399999999980537e+02 7.541499225258216939e+03
3.041499999999980446e+02 7.960069922706670695e+03
3.041599999999980355e+02 8.337522499443381093e+03
3.041699999999980264e+02 8.376098135248659673e+03
3.041799999999980173e+02 8.905736604770725535e+03
3.041899999999980082e+02 1.055964194038774622e+04
3.041999999999979991e+02 1.271630804646059914e+04
3.042099999999979900e+02 1.406056875791080529e+04
3.042199999999979809e+02 1.380769795084093857e+04
3.042299999999979718e+02 1.211321305032471173e+04
3.042399999999979627e+02 9.645975502497247362e+03
3.042499999999979536e+02 7.183246795059052602e+03
3.042599999999979445e+02 5.431148931549844747e+03
3.042699999999979354e+02 4.764178693247898082e+03
3.042799999999979264e+02 5.140215994761520960e+03
3.042899999999979173e+02 6.366194788737326235e+03
3.042999999999979082e+02 8.135989851141221152e+03
3.043099999999978991e+02 9.787828635160336489e+03
3.043199999999978900e+02 1.046618369589338727e+04
3.043299999999978809e+02 9.750580602960677425e+03
3.043399999999978718e+02 8.122914214299508785e+03
3.043499999999978627e+02 6.780006155090455650e+03
3.043599999999978536e+02 6.867703103369291057e+03
3.043699999999978445e+02 8.693583132100742660e+03
3.043799999999978354e+02 1.150216495853070592e+04
3.043899999999978263e+02 1.408286246916247364e+04
3.043999999999978172e+02 1.569928180587615680e+04
3.044099999999978081e+02 1.635932596405729782e+04
3.044199999999977990e+02 1.643008971163070964e+04
3.044299999999977899e+02 1.632488343217584588e+04
3.044399999999977808e+02 1.627979502668850000e+04
3.044499999999977717e+02 1.606750378431405807e+04
3.044599999999977626e+02 1.515433832795248236e+04
3.044699999999977535e+02 1.345362872245885774e+04
3.044799999999977445e+02 1.173150212411562097e+04
3.044899999999977354e+02 1.101701371617806581e+04
3.044999999999977263e+02 1.172868409816245912e+04
3.045099999999977172e+02 1.340277901987526639e+04
3.045199999999977081e+02 1.507593460003257132e+04
3.045299999999976990e+02 1.597106469460643711e+04
3.045399999999976899e+02 1.603957402196834482e+04
3.045499999999976808e+02 1.565269045391903092e+04
3.045599999999976717e+02 1.476820623323166546e+04
3.045699999999976626e+02 1.311571617251780845e+04
3.045799999999976535e+02 1.127545795182165966e+04
3.045899999999976444e+02 1.067009600958129886e+04
3.045999999999976353e+02 1.206896378918997834e+04
3.046099999999976262e+02 1.453437275172388036e+04
3.046199999999976171e+02 1.627340750234419284e+04
3.046299999999976080e+02 1.634592468821037073e+04
3.046399999999975989e+02 1.526981474420551785e+04
3.046499999999975898e+02 1.423916894212110128e+04
3.046599999999975807e+02 1.407096414032413486e+04
3.046699999999975716e+02 1.478749405058851335e+04
3.046799999999975626e+02 1.591558090656411514e+04
3.046899999999975535e+02 1.702074782316172423e+04
3.046999999999975444e+02 1.790898941120196105e+04
3.047099999999975353e+02 1.841222611472243079e+04
3.047199999999975262e+02 1.822160235621269385e+04
3.047299999999975171e+02 1.703577729233276114e+04
3.047399999999975080e+02 1.491211339436687012e+04
3.047499999999974989e+02 1.245542152350098695e+04
3.047599999999974898e+02 1.040887132312833455e+04
3.047699999999974807e+02 9.016629033637498651e+03
3.047799999999974716e+02 8.060592018123830712e+03
3.047899999999974625e+02 7.354369818120487253e+03
3.047999999999974534e+02 6.784277029036706153e+03
3.048099999999974443e+02 6.107612783845572267e+03
3.048199999999974352e+02 5.130233923226793195e+03
3.048299999999974261e+02 3.972789505425902007e+03
3.048399999999974170e+02 3.011341881230140643e+03
3.048499999999974079e+02 2.632248587409341326e+03
3.048599999999973988e+02 3.023390504754162066e+03
3.048699999999973898e+02 4.087852610670795002e+03
3.048799999999973807e+02 5.513973826866681520e+03
3.048899999999973716e+02 6.941172155057843156e+03
3.048999999999973625e+02 8.100708173987419286e+03
3.049099999999973534e+02 8.879961066359168399e+03
3.049199999999973443e+02 9.379277583424898694e+03
3.049299999999973352e+02 9.906862025729651577e+03
3.049399999999973261e+02 1.063485190585971213e+04
3.049499999999973170e+02 1.122512175649738856e+04
3.049599999999973079e+02 1.126734203854745829e+04
3.049699999999972988e+02 1.108757707075422150e+04
3.049799999999972897e+02 1.151792085170889732e+04
3.049899999999972806e+02 1.280034782443170297e+04
3.049999999999972715e+02 1.419307857161403990e+04
3.050099999999972624e+02 1.482118510933230209e+04
3.050199999999972533e+02 1.467752843976577424e+04
3.050299999999972442e+02 1.457269789689382924e+04
3.050399999999972351e+02 1.517512909212754676e+04
3.050499999999972260e+02 1.634341977629500980e+04
3.050599999999972169e+02 1.731745458042356768e+04
3.050699999999972079e+02 1.734137648477110633e+04
3.050799999999971988e+02 1.620038933524595814e+04
3.050899999999971897e+02 1.446536244325670486e+04
3.050999999999971806e+02 1.314802952957111484e+04
3.051099999999971715e+02 1.271994016843734062e+04
3.051199999999971624e+02 1.257615825324708203e+04
3.051299999999971533e+02 1.176474229866780297e+04
3.051399999999971442e+02 9.970311432675827746e+03
3.051499999999971351e+02 7.663500936412587180e+03
3.051599999999971260e+02 5.709469639110815478e+03
3.051699999999971169e+02 4.959499160838547141e+03
3.051799999999971078e+02 5.868619184974089876e+03
3.051899999999970987e+02 8.222835129488210441e+03
3.051999999999970896e+02 1.120002254334971803e+04
3.052099999999970805e+02 1.384740079590306777e+04
3.052199999999970714e+02 1.572996697049325485e+04
3.052299999999970623e+02 1.711092463399213375e+04
3.052399999999970532e+02 1.836751344564932151e+04
3.052499999999970441e+02 1.946303645334174871e+04
3.052599999999970350e+02 2.019885418178793043e+04
3.052699999999970260e+02 2.057434040308509429e+04
3.052799999999970169e+02 2.058924462613591095e+04
3.052899999999970078e+02 2.009214495587761849e+04
3.052999999999969987e+02 1.913865042561270093e+04
3.053099999999969896e+02 1.817162937355218310e+04
3.053199999999969805e+02 1.758234896289888275e+04
3.053299999999969714e+02 1.742090742204125854e+04
3.053399999999969623e+02 1.763820848723899326e+04
3.053499999999969532e+02 1.809773448641011782e+04
3.053599999999969441e+02 1.834008466602515909e+04
3.053699999999969350e+02 1.787329442397547973e+04
3.053799999999969259e+02 1.672541876791504910e+04
3.053899999999969168e+02 1.545567917129391935e+04
3.053999999999969077e+02 1.448890861036059505e+04
3.054099999999968986e+02 1.358062773112785180e+04
3.054199999999968895e+02 1.237862093931394702e+04
3.054299999999968804e+02 1.118576959856074063e+04
3.054399999999968713e+02 1.042304912149445227e+04
3.054499999999968622e+02 9.907863990626468876e+03
3.054599999999968531e+02 9.426319820048132897e+03
3.054699999999968441e+02 9.317518992527302544e+03
3.054799999999968350e+02 9.794429076818176327e+03
3.054899999999968259e+02 1.021487845810575345e+04
3.054999999999968168e+02 9.719845339932744537e+03
3.055099999999968077e+02 8.477622195337728044e+03
3.055199999999967986e+02 7.679269353187946763e+03
3.055299999999967895e+02 8.149303455372834833e+03
3.055399999999967804e+02 9.473061466488736187e+03
3.055499999999967713e+02 1.074787350877766403e+04
3.055599999999967622e+02 1.166966838524778723e+04
3.055699999999967531e+02 1.243833802683071553e+04
3.055799999999967440e+02 1.296216510221667522e+04
3.055899999999967349e+02 1.272695392060690210e+04
3.055999999999967258e+02 1.157767551423562145e+04
3.056099999999967167e+02 1.033304765443074939e+04
3.056199999999967076e+02 1.016420409999860931e+04
3.056299999999966985e+02 1.128179537688037090e+04
3.056399999999966894e+02 1.272870735794139000e+04
3.056499999999966803e+02 1.371802212168042752e+04
3.056599999999966712e+02 1.454426715205779328e+04
3.056699999999966622e+02 1.564980980527392967e+04
3.056799999999966531e+02 1.651074785906287070e+04
3.056899999999966440e+02 1.625862852551363358e+04
3.056999999999966349e+02 1.494918608322331420e+04
3.057099999999966258e+02 1.358225592357097776e+04
3.057199999999966167e+02 1.297531588729745454e+04
3.057299999999966076e+02 1.290242296506453386e+04
3.057399999999965985e+02 1.251486307105538253e+04
3.057499999999965894e+02 1.151256034191740946e+04
3.057599999999965803e+02 1.047477554232110742e+04
3.057699999999965712e+02 9.950485058306383507e+03
3.057799999999965621e+02 9.654667544729511064e+03
3.057899999999965530e+02 8.870204436960804742e+03
3.057999999999965439e+02 7.365616870828760511e+03
3.058099999999965348e+02 5.545485613483127054e+03
3.058199999999965257e+02 3.931057681434485403e+03
3.058299999999965166e+02 2.837663848315028645e+03
3.058399999999965075e+02 2.390612307743820111e+03
3.058499999999964984e+02 2.578593384721503753e+03
3.058599999999964894e+02 3.256998543276917644e+03
3.058699999999964803e+02 4.168109972436816861e+03
3.058799999999964712e+02 5.110683089004046451e+03
3.058899999999964621e+02 6.144134391673833306e+03
3.058999999999964530e+02 7.370025513870437862e+03
3.059099999999964439e+02 8.477158786031404816e+03
3.059199999999964348e+02 8.933916858393111397e+03
3.059299999999964257e+02 8.648745218496156667e+03
