# O3 Cross-Section
# Source: Gorshelev et al. 2014. AMT
# Interpolated by cublic spline
# Wavelength (nm),       Absorption cross-section (cm2/molec)
3.000000000000000000e+02 3.528195760228690478e-19
3.000099999999999909e+02 3.526136811084389392e-19
3.000199999999999818e+02 3.523939727776710099e-19
3.000299999999999727e+02 3.521593322091319859e-19
3.000399999999999636e+02 3.519088507098403606e-19
3.000499999999999545e+02 3.516418323691395984e-19
3.000599999999999454e+02 3.513577952172417264e-19
3.000699999999999363e+02 3.510564710176587904e-19
3.000799999999999272e+02 3.507378037653668727e-19
3.000899999999999181e+02 3.504019469031649803e-19
3.000999999999999091e+02 3.500492592120230301e-19
3.001099999999999000e+02 3.496802992809003053e-19
3.001199999999998909e+02 3.492958184218455072e-19
3.001299999999998818e+02 3.488967518693376251e-19
3.001399999999998727e+02 3.484842080923687660e-19
3.001499999999998636e+02 3.480594560539768712e-19
3.001599999999998545e+02 3.476239102775844463e-19
3.001699999999998454e+02 3.471791136214166201e-19
3.001799999999998363e+02 3.467267177208347554e-19
3.001899999999998272e+02 3.462684611310938185e-19
3.001999999999998181e+02 3.458061452871508891e-19
3.002099999999998090e+02 3.453416084890699958e-19
3.002199999999997999e+02 3.448766982169805214e-19
3.002299999999997908e+02 3.444132421744184551e-19
3.002399999999997817e+02 3.439530185481285174e-19
3.002499999999997726e+02 3.434977260518453635e-19
3.002599999999997635e+02 3.430489543868011526e-19
3.002699999999997544e+02 3.426081557988179058e-19
3.002799999999997453e+02 3.421766184377866980e-19
3.002899999999997362e+02 3.417554422275648029e-19
3.002999999999997272e+02 3.413455179313594797e-19
3.003099999999997181e+02 3.409475100490661510e-19
3.003199999999997090e+02 3.405618441091077764e-19
3.003299999999996999e+02 3.401886988198993947e-19
3.003399999999996908e+02 3.398280034274080107e-19
3.003499999999996817e+02 3.394794404891226494e-19
3.003599999999996726e+02 3.391424541251603541e-19
3.003699999999996635e+02 3.388162636493879567e-19
3.003799999999996544e+02 3.384998823224256433e-19
3.003899999999996453e+02 3.381921408102723601e-19
3.003999999999996362e+02 3.378917147825431451e-19
3.004099999999996271e+02 3.375971559484465369e-19
3.004199999999996180e+02 3.373069257122864674e-19
3.004299999999996089e+02 3.370194305374534784e-19
3.004399999999995998e+02 3.367330580428404036e-19
3.004499999999995907e+02 3.364462128212463560e-19
3.004599999999995816e+02 3.361573509671855440e-19
3.004699999999995725e+02 3.358650123326933365e-19
3.004799999999995634e+02 3.355678495933626168e-19
3.004899999999995543e+02 3.352646533017480451e-19
3.004999999999995453e+02 3.349543722279893184e-19
3.005099999999995362e+02 3.346361284350127392e-19
3.005199999999995271e+02 3.343092267023640752e-19
3.005299999999995180e+02 3.339731580937254508e-19
3.005399999999995089e+02 3.336275976520218527e-19
3.005499999999994998e+02 3.332723963963984539e-19
3.005599999999994907e+02 3.329075679807559136e-19
3.005699999999994816e+02 3.325332705473483965e-19
3.005799999999994725e+02 3.321497844654198831e-19
3.005899999999994634e+02 3.317574867780683198e-19
3.005999999999994543e+02 3.313568232861389906e-19
3.006099999999994452e+02 3.309482792719834542e-19
3.006199999999994361e+02 3.305323499057278703e-19
3.006299999999994270e+02 3.301095113809192115e-19
3.006399999999994179e+02 3.296801937946465587e-19
3.006499999999994088e+02 3.292447567208088755e-19
3.006599999999993997e+02 3.288034683260037558e-19
3.006699999999993906e+02 3.283564887494141379e-19
3.006799999999993815e+02 3.279038583153095514e-19
3.006899999999993724e+02 3.274454909745488024e-19
3.006999999999993634e+02 3.269811731863592408e-19
3.007099999999993543e+02 3.265105682594505514e-19
3.007199999999993452e+02 3.260332259796217863e-19
3.007299999999993361e+02 3.255485971656162799e-19
3.007399999999993270e+02 3.250560526230728933e-19
3.007499999999993179e+02 3.245549058134204755e-19
3.007599999999993088e+02 3.240444384265400916e-19
3.007699999999992997e+02 3.235239279465948757e-19
3.007799999999992906e+02 3.229926762336686669e-19
3.007899999999992815e+02 3.224500381115405133e-19
3.007999999999992724e+02 3.218954489553204337e-19
3.008099999999992633e+02 3.213284503113393959e-19
3.008199999999992542e+02 3.207487126540953211e-19
3.008299999999992451e+02 3.201560544886722454e-19
3.008399999999992360e+02 3.195504571376522280e-19
3.008499999999992269e+02 3.189320747048907108e-19
3.008599999999992178e+02 3.183012388783226622e-19
3.008699999999992087e+02 3.176584584150406506e-19
3.008799999999991996e+02 3.170044133365854698e-19
3.008899999999991905e+02 3.163399440453162083e-19
3.008999999999991815e+02 3.156660357463719157e-19
3.009099999999991724e+02 3.149837987186044307e-19
3.009199999999991633e+02 3.142944451161700407e-19
3.009299999999991542e+02 3.135992630954524673e-19
3.009399999999991451e+02 3.128995891457318049e-19
3.009499999999991360e+02 3.121967795540000376e-19
3.009599999999991269e+02 3.114921819526201433e-19
3.009699999999991178e+02 3.107871078829780514e-19
3.009799999999991087e+02 3.100828072596960514e-19
3.009899999999990996e+02 3.093804455403648533e-19
3.009999999999990905e+02 3.086810842980904787e-19
3.010099999999990814e+02 3.079856657631210802e-19
3.010199999999990723e+02 3.072950017495005373e-19
3.010299999999990632e+02 3.066097672196940141e-19
3.010399999999990541e+02 3.059304985695583696e-19
3.010499999999990450e+02 3.052575965448996875e-19
3.010599999999990359e+02 3.045913335350180761e-19
3.010699999999990268e+02 3.039318648340103904e-19
3.010799999999990177e+02 3.032792433232427158e-19
3.010899999999990087e+02 3.026334369125810442e-19
3.010999999999989996e+02 3.019943479881850448e-19
3.011099999999989905e+02 3.013618340537954205e-19
3.011199999999989814e+02 3.007357287227087457e-19
3.011299999999989723e+02 3.001158622193750531e-19
3.011399999999989632e+02 2.995020805832524999e-19
3.011499999999989541e+02 2.988942628309599128e-19
3.011599999999989450e+02 2.982923354237446640e-19
3.011699999999989359e+02 2.976962835021311011e-19
3.011799999999989268e+02 2.971061584840554041e-19
3.011899999999989177e+02 2.965220817712518004e-19
3.011999999999989086e+02 2.959442444662680709e-19
3.012099999999988995e+02 2.953729031624773987e-19
3.012199999999988904e+02 2.948083720265688125e-19
3.012299999999988813e+02 2.942510115407919786e-19
3.012399999999988722e+02 2.937012144057560982e-19
3.012499999999988631e+02 2.931593892182351622e-19
3.012599999999988540e+02 2.926259426288061747e-19
3.012699999999988449e+02 2.921012607471001180e-19
3.012799999999988358e+02 2.915856905963090577e-19
3.012899999999988268e+02 2.910795224216737916e-19
3.012999999999988177e+02 2.905829736301667553e-19
3.013099999999988086e+02 2.900961750813535247e-19
3.013199999999987995e+02 2.896191603644333025e-19
3.013299999999987904e+02 2.891518585871992235e-19
3.013399999999987813e+02 2.886940910726661257e-19
3.013499999999987722e+02 2.882455722135065287e-19
3.013599999999987631e+02 2.878059145781854958e-19
3.013699999999987540e+02 2.873746382018444782e-19
3.013799999999987449e+02 2.869511838349515510e-19
3.013899999999987358e+02 2.865349297698736186e-19
3.013999999999987267e+02 2.861252117248458912e-19
3.014099999999987176e+02 2.857213451418714281e-19
3.014199999999987085e+02 2.853226491541828682e-19
3.014299999999986994e+02 2.849284714036612930e-19
3.014399999999986903e+02 2.845382128420767968e-19
3.014499999999986812e+02 2.841513516337814340e-19
3.014599999999986721e+02 2.837674652921389880e-19
3.014699999999986630e+02 2.833862502275358066e-19
3.014799999999986539e+02 2.830075379593324765e-19
3.014899999999986449e+02 2.826313073453961438e-19
3.014999999999986358e+02 2.822576923073577254e-19
3.015099999999986267e+02 2.818869846732683292e-19
3.015199999999986176e+02 2.815196319170038819e-19
3.015299999999986085e+02 2.811562297400912358e-19
3.015399999999985994e+02 2.807975096112045591e-19
3.015499999999985903e+02 2.804443215452347560e-19
3.015599999999985812e+02 2.800976125624608515e-19
3.015699999999985721e+02 2.797584014129686203e-19
3.015799999999985630e+02 2.794277502777653336e-19
3.015899999999985539e+02 2.791067342614198537e-19
3.015999999999985448e+02 2.787964095683530114e-19
3.016099999999985357e+02 2.784977813032852584e-19
3.016199999999985266e+02 2.782117718547553734e-19
3.016299999999985175e+02 2.779391908079032818e-19
3.016399999999985084e+02 2.776807072900541650e-19
3.016499999999984993e+02 2.774368255810609164e-19
3.016599999999984902e+02 2.772078647226549475e-19
3.016699999999984811e+02 2.769939427404196747e-19
3.016799999999984720e+02 2.767949659526364382e-19
3.016899999999984630e+02 2.766106236865382141e-19
3.016999999999984539e+02 2.764403885600380656e-19
3.017099999999984448e+02 2.762835223204750438e-19
3.017199999999984357e+02 2.761390870672439963e-19
3.017299999999984266e+02 2.760059615273353822e-19
3.017399999999984175e+02 2.758828619069409674e-19
3.017499999999984084e+02 2.757683667126165995e-19
3.017599999999983993e+02 2.756609448263986201e-19
3.017699999999983902e+02 2.755589860333978792e-19
3.017799999999983811e+02 2.754608331405043841e-19
3.017899999999983720e+02 2.753648147922146960e-19
3.017999999999983629e+02 2.752692780847248092e-19
3.018099999999983538e+02 2.751726201021452326e-19
3.018199999999983447e+02 2.750733175475266595e-19
3.018299999999983356e+02 2.749699537143193849e-19
3.018399999999983265e+02 2.748612421380833949e-19
3.018499999999983174e+02 2.747460463802802131e-19
3.018599999999983083e+02 2.746233955216535639e-19
3.018699999999982992e+02 2.744924950780570489e-19
3.018799999999982901e+02 2.743527331916966020e-19
3.018899999999982811e+02 2.742036820913432248e-19
3.018999999999982720e+02 2.740450949515278777e-19
3.019099999999982629e+02 2.738768984088694063e-19
3.019199999999982538e+02 2.736991811098161534e-19
3.019299999999982447e+02 2.735121787646698590e-19
3.019399999999982356e+02 2.733162562654382645e-19
3.019499999999982265e+02 2.731118874875356687e-19
3.019599999999982174e+02 2.728996334365431011e-19
3.019699999999982083e+02 2.726801194205415438e-19
3.019799999999981992e+02 2.724540119261626907e-19
3.019899999999981901e+02 2.722219958535437335e-19
3.019999999999981810e+02 2.719847527230336451e-19
3.020099999999981719e+02 2.717429404075304062e-19
3.020199999999981628e+02 2.714971748707740797e-19
3.020299999999981537e+02 2.712480143072335518e-19
3.020399999999981446e+02 2.709959459864265201e-19
3.020499999999981355e+02 2.707413760071779744e-19
3.020599999999981264e+02 2.704846220687084030e-19
3.020699999999981173e+02 2.702259092689236737e-19
3.020799999999981083e+02 2.699653688489209956e-19
3.020899999999980992e+02 2.697030397192414076e-19
3.020999999999980901e+02 2.694388725301191931e-19
3.021099999999980810e+02 2.691727359868556718e-19
3.021199999999980719e+02 2.689044250635550784e-19
3.021299999999980628e+02 2.686336707350956206e-19
3.021399999999980537e+02 2.683601508279681410e-19
3.021499999999980446e+02 2.680835015859857905e-19
3.021599999999980355e+02 2.678033295552541442e-19
3.021699999999980264e+02 2.675192234138619773e-19
3.021799999999980173e+02 2.672307654032428790e-19
3.021899999999980082e+02 2.669375420584868604e-19
3.021999999999979991e+02 2.666391539822628846e-19
3.022099999999979900e+02 2.663352244585849840e-19
3.022199999999979809e+02 2.660254067570719707e-19
3.022299999999979718e+02 2.657093900326433391e-19
3.022399999999979627e+02 2.653869037785946833e-19
3.022499999999979536e+02 2.650577208400370139e-19
3.022599999999979445e+02 2.647216590392495126e-19
3.022699999999979354e+02 2.643785815024039175e-19
3.022799999999979264e+02 2.640283958084223657e-19
3.022899999999979173e+02 2.636710521041628272e-19
3.022999999999979082e+02 2.633065403462334429e-19
3.023099999999978991e+02 2.629348868381629728e-19
3.023199999999978900e+02 2.625561502332464418e-19
3.023299999999978809e+02 2.621704171688418450e-19
3.023399999999978718e+02 2.617777976880083175e-19
3.023499999999978627e+02 2.613784205905379783e-19
3.023599999999978536e+02 2.609724288385513925e-19
3.023699999999978445e+02 2.605599751234407997e-19
3.023799999999978354e+02 2.601412176818371908e-19
3.023899999999978263e+02 2.597163164298404389e-19
3.023999999999978172e+02 2.592854294678347027e-19
3.024099999999978081e+02 2.588487099933194552e-19
3.024199999999977990e+02 2.584063036471857325e-19
3.024299999999977899e+02 2.579583463097259605e-19
3.024399999999977808e+02 2.575049623565430938e-19
3.024499999999977717e+02 2.570462633813182695e-19
3.024599999999977626e+02 2.565823473914604175e-19
3.024699999999977535e+02 2.561132984835911576e-19
3.024799999999977445e+02 2.556391870079653870e-19
3.024899999999977354e+02 2.551600702332315193e-19
3.024999999999977263e+02 2.546759935246396388e-19
3.025099999999977172e+02 2.541869920495137595e-19
3.025199999999977081e+02 2.536930930218667930e-19
3.025299999999976990e+02 2.531943184938619477e-19
3.025399999999976899e+02 2.526906886941298972e-19
3.025499999999976808e+02 2.521822259019610793e-19
3.025599999999976717e+02 2.516689588320652963e-19
3.025699999999976626e+02 2.511509274866273536e-19
3.025799999999976535e+02 2.506281884112653561e-19
3.025899999999976444e+02 2.501008202687594045e-19
3.025999999999976353e+02 2.495689296209035033e-19
3.026099999999976262e+02 2.490326567851445551e-19
3.026199999999976171e+02 2.484921816101985411e-19
3.026299999999976080e+02 2.479477289947914134e-19
3.026399999999975989e+02 2.473995739574652845e-19
3.026499999999975898e+02 2.468480460543050859e-19
3.026599999999975807e+02 2.462935329363508272e-19
3.026699999999975716e+02 2.457364828407654460e-19
3.026799999999975626e+02 2.451774058199279097e-19
3.026899999999975535e+02 2.446168735310081798e-19
3.026999999999975444e+02 2.440555174356202259e-19
3.027099999999975353e+02 2.434940252942271522e-19
3.027199999999975262e+02 2.429331358828970959e-19
3.027299999999975171e+02 2.423736319093966729e-19
3.027399999999975080e+02 2.418163311606991029e-19
3.027499999999974989e+02 2.412620759724581749e-19
3.027599999999974898e+02 2.407117211717741449e-19
3.027699999999974807e+02 2.401661207048567644e-19
3.027799999999974716e+02 2.396261132192072528e-19
3.027899999999974625e+02 2.390925069233625705e-19
3.027999999999974534e+02 2.385660640935306915e-19
3.028099999999974443e+02 2.380474856341115672e-19
3.028199999999974352e+02 2.375373961253813462e-19
3.028299999999974261e+02 2.370363298059319901e-19
3.028399999999974170e+02 2.365447179376115324e-19
3.028499999999974079e+02 2.360628779865366378e-19
3.028599999999973988e+02 2.355910050246521212e-19
3.028699999999973898e+02 2.351291657126355074e-19
3.028799999999973807e+02 2.346772951670628649e-19
3.028899999999973716e+02 2.342351969444743360e-19
3.028999999999973625e+02 2.338025462934649659e-19
3.029099999999973534e+02 2.333788967357380278e-19
3.029199999999973443e+02 2.329636899406658659e-19
3.029299999999973352e+02 2.325562687582569229e-19
3.029399999999973261e+02 2.321558931755021323e-19
3.029499999999973170e+02 2.317617588644505345e-19
3.029599999999973079e+02 2.313730178999863855e-19
3.029699999999972988e+02 2.309888011444606443e-19
3.029799999999972897e+02 2.306082417281648019e-19
3.029899999999972806e+02 2.302304990013609538e-19
3.029999999999972715e+02 2.299041589251887404e-19
3.030099999999972624e+02 2.295224399051484390e-19
3.030199999999972533e+02 2.291423506667627805e-19
3.030299999999972442e+02 2.287634455082274283e-19
3.030399999999972351e+02 2.283853798668871176e-19
3.030499999999972260e+02 2.280079232414110582e-19
3.030599999999972169e+02 2.276309690885979325e-19
3.030699999999972079e+02 2.272545413157497750e-19
3.030799999999971988e+02 2.268787970803965252e-19
3.030899999999971897e+02 2.265040257110352201e-19
3.030999999999971806e+02 2.261306436728599088e-19
3.031099999999971715e+02 2.257591856178252338e-19
3.031199999999971624e+02 2.253902916752885019e-19
3.031299999999971533e+02 2.250246912543183655e-19
3.031399999999971442e+02 2.246631837379610629e-19
3.031499999999971351e+02 2.243066165498755511e-19
3.031599999999971260e+02 2.239558611612937882e-19
3.031699999999971169e+02 2.236117876786457108e-19
3.031799999999971078e+02 2.232752387066513876e-19
3.031899999999970987e+02 2.229470032163668584e-19
3.031999999999970896e+02 2.226277911612661701e-19
3.032099999999970805e+02 2.223182095761403073e-19
3.032199999999970714e+02 2.220187408634359602e-19
3.032299999999970623e+02 2.217297239201758132e-19
3.032399999999970532e+02 2.214513386873557212e-19
3.032499999999970441e+02 2.211835946142915819e-19
3.032599999999970350e+02 2.209263234256985733e-19
3.032699999999970260e+02 2.206791764621366010e-19
3.032799999999970169e+02 2.204416267382438301e-19
3.032899999999970078e+02 2.202129757319916542e-19
3.032999999999969987e+02 2.199923647853643204e-19
3.033099999999969896e+02 2.197787908670884550e-19
3.033199999999969805e+02 2.195711263245248169e-19
3.033299999999969714e+02 2.193681421388975901e-19
3.033399999999969623e+02 2.191685340986997093e-19
3.033499999999969532e+02 2.189709512234564701e-19
3.033599999999969441e+02 2.187740257067924864e-19
3.033699999999969350e+02 2.185764036052409198e-19
3.033799999999969259e+02 2.183767754793906599e-19
3.033899999999969168e+02 2.181739061966839045e-19
3.033999999999969077e+02 2.179666631307374310e-19
3.034099999999968986e+02 2.177540420393433950e-19
3.034199999999968895e+02 2.175351899707884865e-19
3.034299999999968804e+02 2.173094246339357540e-19
3.034399999999968713e+02 2.170762497682961108e-19
3.034499999999968622e+02 2.168353661638485242e-19
3.034599999999968531e+02 2.165866781020729604e-19
3.034699999999968441e+02 2.163302951167748085e-19
3.034799999999968350e+02 2.160665291010831108e-19
3.034899999999968259e+02 2.157958869123232144e-19
3.034999999999968168e+02 2.155190587449890520e-19
3.035099999999968077e+02 2.152369026507385911e-19
3.035199999999967986e+02 2.149504256797177425e-19
3.035299999999967895e+02 2.146607621971775402e-19
3.035399999999967804e+02 2.143691499909416304e-19
3.035499999999967713e+02 2.140769048274026634e-19
3.035599999999967622e+02 2.137853941354111931e-19
3.035699999999967531e+02 2.134960104984462658e-19
3.035799999999967440e+02 2.132101456161599098e-19
3.035899999999967349e+02 2.129291653581171455e-19
3.035999999999967258e+02 2.126543864765063879e-19
3.036099999999967167e+02 2.123870554733617967e-19
3.036199999999967076e+02 2.121283300339328188e-19
3.036299999999966985e+02 2.118792633441084237e-19
3.036399999999966894e+02 2.116407915098127913e-19
3.036499999999966803e+02 2.114137241930789128e-19
3.036599999999966712e+02 2.111987384768720026e-19
3.036699999999966622e+02 2.109963758716987265e-19
3.036799999999966531e+02 2.108070422849973382e-19
3.036899999999966440e+02 2.106310106919237978e-19
3.036999999999966349e+02 2.104684261760432690e-19
3.037099999999966258e+02 2.103193129524767381e-19
3.037199999999966167e+02 2.101835829458749983e-19
3.037299999999966076e+02 2.100610454719095674e-19
3.037399999999965985e+02 2.099514175643252351e-19
3.037499999999965894e+02 2.098543344995230151e-19
3.037599999999965803e+02 2.097693600965969511e-19
3.037699999999965712e+02 2.096959964109630868e-19
3.037799999999965621e+02 2.096336924928784541e-19
3.037899999999965530e+02 2.095818519454952088e-19
3.037999999999965439e+02 2.095398390885459423e-19
3.038099999999965348e+02 2.095069836101709031e-19
3.038199999999965257e+02 2.094825836680870831e-19
3.038299999999965166e+02 2.094659074792315342e-19
3.038399999999965075e+02 2.094561935113532641e-19
3.038499999999964984e+02 2.094526494581132222e-19
3.038599999999964894e+02 2.094544502386295327e-19
3.038699999999964803e+02 2.094607353110351066e-19
3.038799999999964712e+02 2.094706056258399860e-19
3.038899999999964621e+02 2.094831205674562260e-19
3.038999999999964530e+02 2.094972952405858347e-19
3.039099999999964439e+02 2.095120984519627096e-19
3.039199999999964348e+02 2.095264517176230691e-19
3.039299999999964257e+02 2.095392295923358646e-19
3.039399999999964166e+02 2.095492615721020309e-19
3.039499999999964075e+02 2.095553357649576758e-19
3.039599999999963984e+02 2.095562044610507807e-19
