# Fraunhofer Reference Spectrum
# Source: Chance, K. and Kurucz, 2010.Quant. Spec. and Rad. Trans. R. L.
# Wavelength (nm),       Intensity (Photons s-1 cm-2 nm-1)
3.000000000000000000e+02 6.636687648281809743e+03
3.000099999999999909e+02 5.787447531051955593e+03
3.000199999999999818e+02 4.783428937452361424e+03
3.000299999999999727e+02 3.940350902304876399e+03
3.000399999999999636e+02 3.647038300095106933e+03
3.000499999999999545e+02 4.105174073446549301e+03
3.000599999999999454e+02 5.157149196095484513e+03
3.000699999999999363e+02 6.366382657418282179e+03
3.000799999999999272e+02 7.333178267384141691e+03
3.000899999999999181e+02 7.898724642242964364e+03
3.000999999999999091e+02 8.020500910715685677e+03
3.001099999999999000e+02 7.616759288756073147e+03
3.001199999999998909e+02 6.700738233191073050e+03
3.001299999999998818e+02 5.558210562866242981e+03
3.001399999999998727e+02 4.581470454579100078e+03
3.001499999999998636e+02 3.924895598876716576e+03
3.001599999999998545e+02 3.444015229869281484e+03
3.001699999999998454e+02 2.984288837764395339e+03
3.001799999999998363e+02 2.630983607147693874e+03
3.001899999999998272e+02 2.634139795523317844e+03
3.001999999999998181e+02 3.167297665766646332e+03
3.002099999999998090e+02 4.210568221241132051e+03
3.002199999999997999e+02 5.576208351342136666e+03
3.002299999999997908e+02 6.956239197540682653e+03
3.002399999999997817e+02 8.018597178019643252e+03
3.002499999999997726e+02 8.591570615234224533e+03
3.002599999999997635e+02 8.772036958177266570e+03
3.002699999999997544e+02 8.782833126380488466e+03
3.002799999999997453e+02 8.716152384499797336e+03
3.002899999999997362e+02 8.450706921798302574e+03
3.002999999999997272e+02 7.793480789144032315e+03
3.003099999999997181e+02 6.684882143954620005e+03
3.003199999999997090e+02 5.310850560602819314e+03
3.003299999999996999e+02 4.048913763087165535e+03
3.003399999999996908e+02 3.279680516453661312e+03
3.003499999999996817e+02 3.174574433435812807e+03
3.003599999999996726e+02 3.588911830677586750e+03
3.003699999999996635e+02 4.176802015360629412e+03
3.003799999999996544e+02 4.713541908939270797e+03
3.003899999999996453e+02 5.292088774037718395e+03
3.003999999999996362e+02 6.048835037242213730e+03
3.004099999999996271e+02 6.745576147498319187e+03
3.004199999999996180e+02 6.883922405011354385e+03
3.004299999999996089e+02 6.273613263183453455e+03
3.004399999999995998e+02 5.315835334316088847e+03
3.004499999999995907e+02 4.695631792346060138e+03
3.004599999999995816e+02 4.870161495193453447e+03
3.004699999999995725e+02 5.822040357645336371e+03
3.004799999999995634e+02 7.190736479675484588e+03
3.004899999999995543e+02 8.584719682460090553e+03
3.004999999999995453e+02 9.825252011927494095e+03
3.005099999999995362e+02 1.094080178631110357e+04
3.005199999999995271e+02 1.193681718794584594e+04
3.005299999999995180e+02 1.267422553504145799e+04
3.005399999999995089e+02 1.307100350328394416e+04
3.005499999999994998e+02 1.327051969754139282e+04
3.005599999999994907e+02 1.339313511134125292e+04
3.005699999999994816e+02 1.326212824432557318e+04
3.005799999999994725e+02 1.268612386432969288e+04
3.005899999999994634e+02 1.189433389041530427e+04
3.005999999999994543e+02 1.135959792595046747e+04
3.006099999999994452e+02 1.130625583732847190e+04
3.006199999999994361e+02 1.164245252295615137e+04
3.006299999999994270e+02 1.214432404962696637e+04
3.006399999999994179e+02 1.250598315982769054e+04
3.006499999999994088e+02 1.248161037177748221e+04
3.006599999999993997e+02 1.212772901155238651e+04
3.006699999999993906e+02 1.174986312450162950e+04
3.006799999999993815e+02 1.157830174163290212e+04
3.006899999999993724e+02 1.157514555324487264e+04
3.006999999999993634e+02 1.151076932987591863e+04
3.007099999999993543e+02 1.116147195754972745e+04
3.007199999999993452e+02 1.047324754613729965e+04
3.007299999999993361e+02 9.603554827202488013e+03
3.007399999999993270e+02 8.825391571375192143e+03
3.007499999999993179e+02 8.348794600862825973e+03
3.007599999999993088e+02 8.208431889669536758e+03
3.007699999999992997e+02 8.270503594542837163e+03
3.007799999999992906e+02 8.229448096461963360e+03
3.007899999999992815e+02 7.732310852406448248e+03
3.007999999999992724e+02 6.817379433315256392e+03
3.008099999999992633e+02 6.110944315844584708e+03
3.008199999999992542e+02 6.248138314006911060e+03
3.008299999999992451e+02 7.162330784207606484e+03
3.008399999999992360e+02 8.152134005546946355e+03
3.008499999999992269e+02 8.549375382446571166e+03
3.008599999999992178e+02 8.154125410238943914e+03
3.008699999999992087e+02 7.137043703645425012e+03
3.008799999999991996e+02 5.802439425983605361e+03
3.008899999999991905e+02 4.529856754938603444e+03
3.008999999999991815e+02 3.743364668616107338e+03
3.009099999999991724e+02 3.726707007635925038e+03
3.009199999999991633e+02 4.447770807676712138e+03
3.009299999999991542e+02 5.632105449501601470e+03
3.009399999999991451e+02 7.006500245003033342e+03
3.009499999999991360e+02 8.412294105110451710e+03
3.009599999999991269e+02 9.670298191720041359e+03
3.009699999999991178e+02 1.042400098761852496e+04
3.009799999999991087e+02 1.031082908994625723e+04
3.009899999999990996e+02 9.399304350418715330e+03
3.009999999999990905e+02 8.245880315430746123e+03
3.010099999999990814e+02 7.306100175061078517e+03
3.010199999999990723e+02 6.519921202716001062e+03
3.010299999999990632e+02 5.724686975601555787e+03
3.010399999999990541e+02 5.207385194559524280e+03
3.010499999999990450e+02 5.512721371466731398e+03
3.010599999999990359e+02 6.795837194912388441e+03
3.010699999999990268e+02 8.585508729442613912e+03
3.010799999999990177e+02 1.019858400922880719e+04
3.010899999999990087e+02 1.131336978567097503e+04
3.010999999999989996e+02 1.212794192891517196e+04
3.011099999999989905e+02 1.297719457069069540e+04
3.011199999999989814e+02 1.389699804249989211e+04
3.011299999999989723e+02 1.469030348784014132e+04
3.011399999999989632e+02 1.527206916413161889e+04
3.011499999999989541e+02 1.571218209986346847e+04
3.011599999999989450e+02 1.602792618381497414e+04
3.011699999999989359e+02 1.610307352631823233e+04
3.011799999999989268e+02 1.575551706745997581e+04
3.011899999999989177e+02 1.482406575763772526e+04
3.011999999999989086e+02 1.330583894869785945e+04
3.012099999999988995e+02 1.148044737737513424e+04
3.012199999999988904e+02 9.838590665426656415e+03
3.012299999999988813e+02 8.768454934940846215e+03
3.012399999999988722e+02 8.213566958121882635e+03
3.012499999999988631e+02 7.706372494714996719e+03
3.012599999999988540e+02 6.865160618612912913e+03
3.012699999999988449e+02 5.834677635899685811e+03
3.012799999999988358e+02 5.212658033094495295e+03
3.012899999999988268e+02 5.546061742384786157e+03
3.012999999999988177e+02 6.831907919265505370e+03
3.013099999999988086e+02 8.545768309800192583e+03
3.013199999999987995e+02 1.023593223837016922e+04
3.013299999999987904e+02 1.189226733825964584e+04
3.013399999999987813e+02 1.352539443390805536e+04
3.013499999999987722e+02 1.466249897111692553e+04
3.013599999999987631e+02 1.465924258643940993e+04
3.013699999999987540e+02 1.349946860112155628e+04
3.013799999999987449e+02 1.207159394684626022e+04
3.013899999999987358e+02 1.146955101252192253e+04
3.013999999999987267e+02 1.193769390688474778e+04
3.014099999999987176e+02 1.266658555518520188e+04
3.014199999999987085e+02 1.269125893275583257e+04
3.014299999999986994e+02 1.177622731729472616e+04
3.014399999999986903e+02 1.048753806586012433e+04
3.014499999999986812e+02 9.720246125472125641e+03
3.014599999999986721e+02 1.002903908009036240e+04
3.014699999999986630e+02 1.109060801341696060e+04
3.014799999999986539e+02 1.196393285398916851e+04
3.014899999999986449e+02 1.212570003329285464e+04
3.014999999999986358e+02 1.202085696597426977e+04
3.015099999999986267e+02 1.235617693254279220e+04
3.015199999999986176e+02 1.313011941260039021e+04
3.015299999999986085e+02 1.360542635381063883e+04
3.015399999999985994e+02 1.302716755369692692e+04
3.015499999999985903e+02 1.130228555304172369e+04
3.015599999999985812e+02 9.221042329685846198e+03
3.015699999999985721e+02 7.974898998469128856e+03
3.015799999999985630e+02 8.174590536326032634e+03
3.015899999999985539e+02 9.373942122034779459e+03
3.015999999999985448e+02 1.072179738111065308e+04
3.016099999999985357e+02 1.181133365048061023e+04
3.016199999999985266e+02 1.266758751970231424e+04
3.016299999999985175e+02 1.335956929828266402e+04
3.016399999999985084e+02 1.387821120691682518e+04
3.016499999999984993e+02 1.401422789686937176e+04
3.016599999999984902e+02 1.337810564301946943e+04
3.016699999999984811e+02 1.186978575878359152e+04
3.016799999999984720e+02 9.986455586409170792e+03
3.016899999999984630e+02 8.490710357259160446e+03
3.016999999999984539e+02 7.958855040767573882e+03
3.017099999999984448e+02 8.597807844486635076e+03
3.017199999999984357e+02 1.012852163678773286e+04
3.017299999999984266e+02 1.182918114421913197e+04
3.017399999999984175e+02 1.291845439799120140e+04
3.017499999999984084e+02 1.304144554863968733e+04
3.017599999999983993e+02 1.257064744810980847e+04
3.017699999999983902e+02 1.226804162448283932e+04
3.017799999999983811e+02 1.230321058074773282e+04
3.017899999999983720e+02 1.196444636103026460e+04
3.017999999999983629e+02 1.068746757062120196e+04
3.018099999999983538e+02 8.807018046417531878e+03
3.018199999999983447e+02 6.977543469435936458e+03
3.018299999999983356e+02 5.500509928603451954e+03
3.018399999999983265e+02 4.518722423715828882e+03
3.018499999999983174e+02 4.289472930816514236e+03
3.018599999999983083e+02 4.933623425757723453e+03
3.018699999999982992e+02 6.186003986149887169e+03
3.018799999999982901e+02 7.562390186252579952e+03
3.018899999999982811e+02 8.685767808865135521e+03
3.018999999999982720e+02 9.443691380499216393e+03
3.019099999999982629e+02 9.875488010373081124e+03
3.019199999999982538e+02 9.961970077063275312e+03
3.019299999999982447e+02 9.665000304249006149e+03
3.019399999999982356e+02 9.086578684753880225e+03
3.019499999999982265e+02 8.314076528780564331e+03
3.019599999999982174e+02 7.250353371650412555e+03
3.019699999999982083e+02 5.888370412244097679e+03
3.019799999999981992e+02 4.577174531694272446e+03
3.019899999999981901e+02 3.809945214076678440e+03
3.019999999999981810e+02 3.877778215051630468e+03
3.020099999999981719e+02 4.763552465147970906e+03
3.020199999999981628e+02 6.176259880704797069e+03
3.020299999999981537e+02 7.612826577597099458e+03
3.020399999999981446e+02 8.538428919459003737e+03
3.020499999999981355e+02 8.645501358079087368e+03
3.020599999999981264e+02 7.970991336768385736e+03
3.020699999999981173e+02 6.819959492238277562e+03
3.020799999999981083e+02 5.607381974151196118e+03
3.020899999999980992e+02 4.654776687293712712e+03
3.020999999999980901e+02 4.016562832227597482e+03
3.021099999999980810e+02 3.511760559195371115e+03
3.021199999999980719e+02 2.952088201626817863e+03
3.021299999999980628e+02 2.325334316331891387e+03
3.021399999999980537e+02 1.782507487980482892e+03
3.021499999999980446e+02 1.488418363175667764e+03
3.021599999999980355e+02 1.473313747294194400e+03
3.021699999999980264e+02 1.605222382428566107e+03
3.021799999999980173e+02 1.724067904551728816e+03
3.021899999999980082e+02 1.815171532731664229e+03
3.021999999999979991e+02 2.009176921835941357e+03
3.022099999999979900e+02 2.395020951701681497e+03
3.022199999999979809e+02 2.907914088585559512e+03
3.022299999999979718e+02 3.459921417231544183e+03
3.022399999999979627e+02 4.121042687109607868e+03
3.022499999999979536e+02 5.064317178811717895e+03
3.022599999999979445e+02 6.327406235517350979e+03
3.022699999999979354e+02 7.717794890418797877e+03
3.022799999999979264e+02 8.949572554540485726e+03
3.022899999999979173e+02 9.807417042567385579e+03
3.022999999999979082e+02 1.024965915306645547e+04
3.023099999999978991e+02 1.045140471850039648e+04
3.023199999999978900e+02 1.066749090174713274e+04
3.023299999999978809e+02 1.098135630210789168e+04
3.023399999999978718e+02 1.132183638626834909e+04
3.023499999999978627e+02 1.174583021698865923e+04
3.023599999999978536e+02 1.242679038525753276e+04
3.023699999999978445e+02 1.330659042174569549e+04
3.023799999999978354e+02 1.408048280364324455e+04
3.023899999999978263e+02 1.461903875803429401e+04
3.023999999999978172e+02 1.509096406872881562e+04
3.024099999999978081e+02 1.558155096948014580e+04
3.024199999999977990e+02 1.590819141813688475e+04
3.024299999999977899e+02 1.585809318992354019e+04
3.024399999999977808e+02 1.531515364071395743e+04
3.024499999999977717e+02 1.416878093151220492e+04
3.024599999999977626e+02 1.235451116700610146e+04
3.024699999999977535e+02 1.007115916618363190e+04
3.024799999999977445e+02 7.899563787991764912e+03
3.024899999999977354e+02 6.555566092261651647e+03
3.024999999999977263e+02 6.394249796831692947e+03
3.025099999999977172e+02 7.262138979352550450e+03
3.025199999999977081e+02 8.832142307183292360e+03
3.025299999999976990e+02 1.073779124025217607e+04
3.025399999999976899e+02 1.240043871703518744e+04
3.025499999999976808e+02 1.324922795043065707e+04
3.025599999999976717e+02 1.323244504410451009e+04
3.025699999999976626e+02 1.282301727325106549e+04
3.025799999999976535e+02 1.249012707063441121e+04
3.025899999999976444e+02 1.226933165391238617e+04
3.025999999999976353e+02 1.183652053505976983e+04
3.026099999999976262e+02 1.096211858276330531e+04
3.026199999999976171e+02 9.741901084945471666e+03
3.026299999999976080e+02 8.308164938050003911e+03
3.026399999999975989e+02 6.666445996308500071e+03
3.026499999999975898e+02 4.990597636449227139e+03
3.026599999999975807e+02 3.733620563392206350e+03
3.026699999999975716e+02 3.314486260545017103e+03
3.026799999999975626e+02 3.825513238236370853e+03
3.026899999999975535e+02 4.946824308792509328e+03
3.026999999999975444e+02 6.041495646614313955e+03
3.027099999999975353e+02 6.509876507850261078e+03
3.027199999999975262e+02 6.280890030912474685e+03
3.027299999999975171e+02 5.975892016857069393e+03
3.027399999999975080e+02 6.418359569054159692e+03
3.027499999999974989e+02 7.883970713542525118e+03
3.027599999999974898e+02 9.913825679115925595e+03
3.027699999999974807e+02 1.190526782823514441e+04
3.027799999999974716e+02 1.372729029373022058e+04
3.027899999999974625e+02 1.559031815904511313e+04
3.027999999999974534e+02 1.747376105246712905e+04
3.028099999999974443e+02 1.899587047430285020e+04
3.028199999999974352e+02 1.978316413243874922e+04
3.028299999999974261e+02 1.973982916514697718e+04
3.028399999999974170e+02 1.907001585272851662e+04
3.028499999999974079e+02 1.816524184943430737e+04
3.028599999999973988e+02 1.727324289434145248e+04
3.028699999999973898e+02 1.627353274843162581e+04
3.028799999999973807e+02 1.509422045397294096e+04
3.028899999999973716e+02 1.424505548389496289e+04
3.028999999999973625e+02 1.442340517637844641e+04
3.029099999999973534e+02 1.560534762764515472e+04
3.029199999999973443e+02 1.696714271881322566e+04
3.029299999999973352e+02 1.770158274608831198e+04
3.029399999999973261e+02 1.761967214298848558e+04
3.029499999999973170e+02 1.700083377786705023e+04
3.029599999999973079e+02 1.606863099463671642e+04
3.029699999999972988e+02 1.474578727619494748e+04
3.029799999999972897e+02 1.293561304183153698e+04
3.029899999999972806e+02 1.089987153435956679e+04
3.029999999999972715e+02 9.318971841507665886e+03
3.030099999999972624e+02 8.986883210167916332e+03
3.030199999999972533e+02 1.017279594585453924e+04
3.030299999999972442e+02 1.213822458983696379e+04
3.030399999999972351e+02 1.361269059666480462e+04
3.030499999999972260e+02 1.394196120254715970e+04
3.030599999999972169e+02 1.348256044905828094e+04
3.030699999999972079e+02 1.274649222964672299e+04
3.030799999999971988e+02 1.170250777452164766e+04
3.030899999999971897e+02 1.034984308555429743e+04
3.030999999999971806e+02 9.459134159553877907e+03
3.031099999999971715e+02 1.001984605490538343e+04
3.031199999999971624e+02 1.200108068969290252e+04
3.031299999999971533e+02 1.420172051577099410e+04
3.031399999999971442e+02 1.547559321650615675e+04
3.031499999999971351e+02 1.562989575998487999e+04
3.031599999999971260e+02 1.497949551112635527e+04
3.031699999999971169e+02 1.369034285126300892e+04
3.031799999999971078e+02 1.188090756576328386e+04
3.031899999999970987e+02 9.867046459524037346e+03
3.031999999999970896e+02 8.048443198018687326e+03
3.032099999999970805e+02 6.754193043066639802e+03
3.032199999999970714e+02 6.103442106243099261e+03
3.032299999999970623e+02 5.870973802249260189e+03
3.032399999999970532e+02 5.758691148016140687e+03
3.032499999999970441e+02 5.902635882364934332e+03
3.032599999999970350e+02 6.854903005797230435e+03
3.032699999999970260e+02 9.030856929371806473e+03
3.032799999999970169e+02 1.224745125160093630e+04
3.032899999999970078e+02 1.568588052907797464e+04
3.032999999999969987e+02 1.834334105023529992e+04
3.033099999999969896e+02 1.969160962007538910e+04
3.033199999999969805e+02 1.995324761766939628e+04
3.033299999999969714e+02 1.978203692245206184e+04
3.033399999999969623e+02 1.960418821195209603e+04
3.033499999999969532e+02 1.918211063858654597e+04
3.033599999999969441e+02 1.802396484583516940e+04
3.033699999999969350e+02 1.627628815123290588e+04
3.033799999999969259e+02 1.487466496837082559e+04
3.033899999999969168e+02 1.461540663648522786e+04
3.033999999999969077e+02 1.524614333081103177e+04
3.034099999999968986e+02 1.568212316291281422e+04
3.034199999999968895e+02 1.523737614132124145e+04
3.034299999999968804e+02 1.443718218955631528e+04
3.034399999999968713e+02 1.421687523030623743e+04
3.034499999999968622e+02 1.466400191786616415e+04
3.034599999999968531e+02 1.517237368972301010e+04
3.034699999999968441e+02 1.537852789933079839e+04
3.034799999999968350e+02 1.527181867312593749e+04
3.034899999999968259e+02 1.485475092251960086e+04
3.034999999999968168e+02 1.421812768628984122e+04
3.035099999999968077e+02 1.346227066668952648e+04
3.035199999999967986e+02 1.243355364663802902e+04
3.035299999999967895e+02 1.123118364254117478e+04
3.035399999999967804e+02 1.070698083022352330e+04
3.035499999999967713e+02 1.160078332107959795e+04
3.035599999999967622e+02 1.352789934482572244e+04
3.035699999999967531e+02 1.546895520089994534e+04
3.035799999999967440e+02 1.682160736554051982e+04
3.035899999999967349e+02 1.752198059754655696e+04
3.035999999999967258e+02 1.762029837079032586e+04
3.036099999999967167e+02 1.728539171460511716e+04
3.036199999999967076e+02 1.693520509864403721e+04
3.036299999999966985e+02 1.680532544170492110e+04
3.036399999999966894e+02 1.655333135342098467e+04
3.036499999999966803e+02 1.583078965571812660e+04
3.036599999999966712e+02 1.507368018022671458e+04
3.036699999999966622e+02 1.504011436696485544e+04
3.036799999999966531e+02 1.568901166906424078e+04
3.036899999999966440e+02 1.623871447936711957e+04
3.036999999999966349e+02 1.621854994265528876e+04
3.037099999999966258e+02 1.583630046068782758e+04
3.037199999999966167e+02 1.546870471040585835e+04
3.037299999999966076e+02 1.524952496150279876e+04
3.037399999999965985e+02 1.501982458475025851e+04
3.037499999999965894e+02 1.444306873148241175e+04
3.037599999999965803e+02 1.326450791066371494e+04
3.037699999999965712e+02 1.148043485331620650e+04
3.037799999999965621e+02 9.283276854329358684e+03
3.037899999999965530e+02 7.014290520376008317e+03
3.037999999999965439e+02 5.072545813623159120e+03
3.038099999999965348e+02 3.694180733310380219e+03
3.038199999999965257e+02 2.917044490971622054e+03
3.038299999999965166e+02 2.714359583592354284e+03
3.038399999999965075e+02 2.954718358369337693e+03
3.038499999999964984e+02 3.326359540557875789e+03
3.038599999999964894e+02 3.549158886482850903e+03
3.038699999999964803e+02 3.695057451848621895e+03
3.038799999999964712e+02 4.179519843983520332e+03
3.038899999999964621e+02 5.349551441399240503e+03
3.038999999999964530e+02 7.114411828227420301e+03
3.039099999999964439e+02 9.067140571363752315e+03
3.039199999999964348e+02 1.086216009187737654e+04
3.039299999999964257e+02 1.230733115958840426e+04
3.039399999999964166e+02 1.326212824406312939e+04
3.039499999999964075e+02 1.369234677986230963e+04
